-489
-485
-483
-482
-463
-452
-450
-469
-469
-447
-441
-454
-464
-475
-489
-474
-448
-453
-453
-455
-465
-452
-451
-422
-427
-447
-440
-432
-400
-393
-393
-418
-477
-504
-477
-453
-469
-509
-495
-462
-460
-440
-429
-429
-455
-449
-427
-401
-413
-456
-438
-431
-431
-443
-463
-456
-438
-442
-454
-453
-458
-463
-471
-447
-427
-432
-422
-425
-437
-423
-407
-402
-409
-461
-466
-435
-444
-450
-427
-417
-429
-423
-417
-416
-421
-431
-423
-408
-386
-355
-401
-380
-324
-385
-399
-389
-376
-388
-425
-384
-334
-323
-336
-324
-314
-332
-302
-292
-305
-292
-282
-284
-290
-321
-312
-277
-272
-274
-308
-270
-235
-249
-250
-277
-240
-183
-177
-179
-186
-155
-156
-180
-194
-197
-188
-204
-184
-184
-163
-151
-158
-134
-144
-117
-105
-101
-97
-94
-76
-67
-28
-39
-57
-74
-51
-23
-33
-43
-110
-129
-80
-14
-68
-103
-60
-74
-73
-40
2
23
11
-33
-47
-26
6
-26
-44
-42
-65
-68
-79
-37
-22
-22
0
-5
-25
-35
-36
-40
-45
-55
-44
-62
-82
-92
-92
-83
-77
-53
-69
-74
-71
-79
-91
-98
-80
-53
-58
-57
-66
-127
-109
-109
-121
-95
-129
-161
-159
-151
-165
-152
-149
-155
-148
-159
-168
-166
-166
-189
-160
-158
-184
-190
-172
-150
-195
-197
-180
-201
-213
-219
-232
-221
-203
-198
-223
-217
-172
-167
-204
-264
-240
-211
-223
-241
-293
-321
-274
-263
-285
-288
-300
-279
-260
-252
-261
-241
-235
-239
-248
-307
-322
-306
-293
-298
-320
-342
-329
-334
-314
-269
-282
-287
-303
-314
-320
-279
-252
-294
-293
-304
-325
-341
-343
-329
-367
-376
-343
-352
-344
-335
-345
-341
-333
-320
-322
-336
-382
-369
-323
-354
-399
-393
-373
-375
-368
-362
-369
-406
-387
-345
-379
-381
-339
-328
-336
-338
-357
-344
-348
-400
-408
-366
-330
-363
-342
-340
-399
-387
-373
-365
-356
-348
-346
-353
-352
-351
-358
-349
-357
-376
-372
-387
-388
-390
-400
-385
-389
-391
-383
-399
-389
-361
-362
-362
-365
-363
-363
-363
-357
-375
-381
-384
-405
-397
-396
-401
-396
-456
-459
-458
-435
-366
-381
-371
-366
-349
-369
-383
-362
-391
-387
-393
-386
-383
-407
-416
-388
-391
-412
-376
-370
-434
-468
-350
-302
-361
-368
-375
-371
-367
-373
-380
-389
-387
-379
-378
-375
-386
-360
-347
-384
-380
-346
-348
-376
-375
-385
-373
-343
-353
-354
-343
-353
-363
-385
-403
-372
-389
-402
-351
-351
-374
-366
-368
-348
-326
-351
-362
-349
-348
-359
-326
-368
-390
-369
-403
-365
-369
-379
-364
-376
-368
-335
-311
-311
-321
-337
-350
-354
-348
-373
-382
-326
-292
-306
-316
-299
-298
-296
-278
-286
-254
-272
-278
-237
-228
-236
-224
-210
-238
-185
-195
-202
-178
-230
-213
-202
-259
-266
-251
-256
-251
-256
-259
-275
-262
-257
-251
-273
-326
-314
-285
-230
-201
-222
-232
-215
-221
-221
-215
-236
-237
-237
-258
-280
-290
-295
-266
-274
-310
-326
-339
-350
-356
-358
-367
-361
-364
-364
-370
-364
-360
-363
-355
-364
-376
-371
-380
-429
-420
-378
-388
-419
-422
-437
-421
-431
-482
-452
-451
-437
-413
-386
-378
-419
-391
-387
-375
-345
-375
-406
-428
-439
-447
-440
-413
-395
-408
-428
-435
-424
-393
-406
-438
-418
-399
-399
-394
-403
-400
-400
-418
-414
-416
-436
-434
-434
-457
-465
-490
-520
-530
-548
-565
-585
-606
-636
-646
-664
-688
-717
-737
-726
-724
-704
-674
-621
-592
-546
-481
-422
-335
-263
-177
-98
-36
46
144
215
307
430
484
542
604
630
650
631
637
675
689
689
690
649
563
456
360
291
234
244
255
236
221
221
184
106
161
167
94
102
87
12
4
-1
-90
-85
-115
-142
-143
-169
-223
-317
-380
-467
-512
-572
-603
-623
-690
-727
-791
-855
-864
-885
-907
-946
-1007
-1024
-1062
-1068
-1073
-1123
-1159
-1189
-1201
-1232
-1249
-1235
-1214
-1217
-1242
-1221
-1183
-1141
-1116
-1093
-1058
-1005
-958
-935
-872
-839
-842
-830
-778
-702
-673
-688
-672
-612
-621
-611
-534
-517
-511
-459
-467
-486
-421
-433
-473
-432
-444
-453
-459
-485
-438
-415
-448
-427
-378
-423
-472
-433
-395
-399
-394
-385
-386
-412
-434
-410
-400
-410
-417
-451
-431
-381
-431
-449
-446
-464
-447
-401
-364
-386
-401
-398
-385
-405
-410
-394
-414
-425
-420
-428
-421
-443
-448
-383
-401
-410
-397
-411
-402
-386
-375
-405
-385
-391
-408
-386
-417
-412
-409
-413
-402
-397
-396
-389
-377
-374
-362
-381
-405
-415
-422
-433
-453
-412
-369
-330
-359
-395
-358
-373
-388
-400
-389
-377
-401
-405
-333
-309
-338
-319
-322
-345
-348
-331
-327
-296
-303
-331
-351
-371
-357
-356
-338
-317
-296
-299
-314
-278
-259
-258
-271
-299
-274
-260
-262
-254
-249
-235
-228
-224
-209
-209
-205
-187
-178
-170
-135
-123
-177
-171
-149
-142
-122
-129
-123
-119
-110
-115
-111
-107
-128
-113
-99
-76
-84
-43
50
33
-33
-76
-74
-25
29
19
7
0
-7
-8
-5
2
10
16
15
54
59
81
79
54
40
16
51
58
67
76
79
68
20
9
24
16
41
116
103
91
142
140
117
91
54
58
82
79
66
88
91
72
61
9
-1
30
42
49
65
71
49
50
45
38
43
33
38
52
33
-42
-25
16
-21
-33
-55
-67
-56
-60
-67
-61
-67
-68
-66
-68
-64
-66
-96
-103
-82
-102
-118
-108
-119
-179
-196
-140
-117
-121
-83
-138
-195
-168
-137
-111
-162
-98
-66
-155
-183
-197
-196
-196
-182
-195
-196
-178
-171
-198
-225
-211
-217
-192
-184
-193
-186
-184
-210
-225
-218
-219
-206
-226
-237
-240
-251
-260
-270
-257
-223
-233
-251
-244
-251
-260
-236
-209
-248
-284
-260
-264
-265
-245
-306
-351
-345
-335
-351
-337
-293
-271
-291
-306
-296
-331
-323
-304
-332
-307
-262
-306
-347
-333
-310
-317
-348
-352
-323
-331
-349
-349
-345
-343
-350
-297
-286
-316
-322
-338
-344
-349
-345
-356
-364
-363
-369
-370
-342
-329
-350
-350
-343
-344
-359
-355
-335
-325
-302
-309
-338
-308
-329
-379
-378
-359
-339
-382
-366
-364
-370
-363
-391
-349
-354
-391
-394
-363
-360
-385
-370
-347
-317
-315
-338
-357
-382
-388
-362
-384
-385
-378
-367
-356
-373
-333
-293
-302
-341
-355
-355
-369
-332
-298
-338
-370
-371
-391
-376
-385
-403
-344
-323
-335
-343
-341
-320
-345
-386
-380
-379
-365
-348
-342
-351
-374
-346
-350
-352
-358
-389
-368
-348
-336
-337
-326
-364
-374
-333
-349
-369
-362
-327
-363
-372
-354
-355
-346
-326
-333
-361
-358
-338
-313
-362
-392
-378
-358
-356
-313
-323
-383
-373
-402
-363
-339
-365
-362
-356
-331
-321
-329
-330
-327
-310
-280
-304
-302
-299
-318
-313
-360
-339
-301
-356
-372
-348
-324
-313
-295
-320
-358
-333
-308
-303
-301
-288
-274
-281
-265
-251
-292
-285
-257
-258
-251
-249
-254
-244
-221
-263
-307
-254
-222
-251
-265
-265
-261
-221
-216
-261
-276
-282
-261
-261
-277
-253
-220
-209
-232
-229
-222
-211
-217
-223
-184
-201
-215
-221
-269
-258
-235
-298
-342
-331
-348
-369
-368
-371
-385
-383
-384
-382
-354
-356
-336
-309
-349
-401
-402
-392
-404
-414
-422
-430
-432
-423
-441
-415
-393
-419
-411
-415
-406
-423
-463
-396
-353
-375
-393
-423
-490
-481
-349
-334
-402
-391
-394
-418
-404
-397
-389
-387
-393
-387
-382
-359
-357
-334
-332
-358
-343
-398
-445
-418
-382
-381
-400
-399
-390
-394
-421
-425
-423
-435
-456
-465
-476
-521
-543
-575
-615
-643
-688
-734
-756
-768
-794
-779
-755
-754
-731
-694
-648
-610
-564
-498
-435
-365
-294
-244
-188
-115
-36
65
174
265
364
458
533
601
567
548
605
633
676
724
708
669
654
543
426
404
389
324
239
208
227
305
326
287
260
242
219
190
191
147
73
28
3
-38
-75
-110
-147
-205
-262
-291
-351
-423
-464
-471
-542
-626
-675
-663
-665
-706
-723
-849
-971
-1000
-984
-1015
-1034
-1088
-1153
-1114
-1139
-1185
-1218
-1216
-1213
-1219
-1237
-1251
-1225
-1233
-1203
-1209
-1225
-1176
-1153
-1119
-1083
-1046
-1000
-963
-917
-864
-836
-812
-763
-716
-674
-642
-616
-601
-571
-541
-526
-492
-482
-485
-485
-477
-483
-488
-451
-475
-485
-464
-461
-454
-402
-361
-404
-416
-458
-458
-382
-409
-431
-436
-440
-403
-413
-407
-406
-437
-439
-424
-433
-470
-444
-399
-397
-412
-420
-426
-421
-405
-414
-433
-445
-447
-440
-457
-445
-423
-436
-453
-460
-440
-413
-367
-387
-413
-432
-443
-391
-423
-421
-413
-419
-377
-402
-439
-428
-432
-447
-424
-420
-434
-448
-399
-344
-363
-387
-401
-400
-398
-394
-394
-397
-398
-412
-444
-427
-403
-408
-393
-394
-397
-387
-378
-382
-375
-371
-369
-358
-364
-375
-378
-371
-372
-385
-391
-381
-386
-368
-339
-360
-390
-325
-286
-345
-346
-328
-292
-334
-339
-294
-323
-290
-275
-264
-264
-236
-235
-307
-268
-230
-203
-191
-255
-272
-237
-224
-218
-214
-226
-204
-197
-206
-187
-197
-200
-194
-188
-169
-170
-140
-120
-117
-115
-143
-175
-128
-48
-69
-73
-76
-114
-118
-75
-67
-60
-68
-106
-42
-55
-90
-62
-43
-17
-33
-73
-87
-66
-16
32
5
-31
-8
10
-5
-28
-22
-4
10
20
19
29
39
46
24
35
33
37
73
52
52
40
28
25
10
8
-8
-2
13
23
13
-10
5
33
44
32
5
15
25
6
-14
-30
-22
-15
-26
-47
-52
-78
-81
-41
-41
-2
15
-47
-50
-17
-26
-85
-86
-36
-59
-90
-108
-120
-125
-87
-74
-129
-139
-94
-82
-125
-99
-109
-135
-86
-105
-112
-105
-130
-133
-133
-137
-137
-139
-152
-163
-173
-159
-141
-154
-161
-162
-155
-153
-172
-189
-185
-190
-216
-234
-260
-243
-246
-289
-272
-242
-253
-269
-217
-205
-185
-172
-228
-236
-241
-232
-244
-236
-239
-235
-227
-262
-228
-214
-231
-264
-301
-245
-198
-220
-232
-226
-207
-206
-218
-238
-216
-184
-251
-279
-271
-281
-300
-327
-293
-258
-253
-256
-267
-266
-246
-223
-229
-254
-240
-215
-236
-254
-266
-259
-240
-263
-258
-240
-242
-227
-235
-265
-270
-274
-292
-228
-197
-256
-218
-164
-156
-193
-225
-200
-211
-221
-230
-246
-251
-255
-249
-259
-230
-209
-222
-193
-183
-194
-182
-199
-198
-167
-176
-206
-213
-224
-214
-219
-204
-182
-249
-236
-212
-209
-175
-171
-177
-199
-188
-200
-207
-187
-201
-175
-229
-262
-216
-217
-208
-216
-210
-203
-246
-284
-256
-212
-199
-218
-227
-215
-196
-192
-197
-193
-212
-228
-254
-284
-250
-208
-248
-277
-300
-302
-252
-219
-235
-246
-235
-285
-222
-187
-238
-206
-204
-210
-229
-249
-273
-252
-214
-222
-230
-228
-205
-207
-226
-218
-206
-249
-250
-235
-259
-243
-225
-206
-197
-248
-251
-245
-271
-202
-214
-255
-266
-279
-258
-261
-211
-168
-196
-195
-163
-176
-172
-184
-200
-182
-185
-182
-185
-169
-137
-107
-88
-76
-74
-78
-67
-68
-79
-80
-79
-97
-115
-110
-106
-95
-60
-119
-167
-132
-177
-191
-155
-115
-62
-38
-59
-35
-15
-84
-82
-91
-80
-77
-131
-119
-182
-177
-135
-163
-147
-161
-186
-205
-174
-164
-176
-176
-180
-201
-223
-174
-172
-208
-238
-212
-201
-233
-233
-232
-241
-245
-226
-241
-241
-193
-168
-178
-193
-224
-244
-268
-269
-262
-248
-206
-214
-192
-188
-241
-240
-228
-245
-229
-210
-211
-213
-219
-224
-249
-231
-224
-254
-243
-249
-256
-240
-262
-268
-229
-234
-209
-206
-232
-210
-217
-212
-194
-179
-197
-195
-227
-336
-318
-318
-363
-362
-439
-479
-462
-488
-522
-526
-554
-577
-579
-566
-516
-515
-552
-531
-491
-452
-405
-356
-298
-239
-171
-162
-72
82
182
280
373
468
535
595
657
703
715
725
736
720
734
795
789
771
725
615
542
484
432
369
382
428
405
416
444
376
281
255
226
197
178
152
110
-1
-12
-21
-75
-95
-137
-140
-168
-188
-220
-327
-422
-435
-461
-505
-544
-607
-654
-694
-730
-781
-808
-847
-853
-854
-890
-911
-944
-963
-970
-980
-1003
-997
-1012
-1053
-1080
-1098
-1118
-1099
-1067
-1091
-1083
-1070
-1019
-963
-932
-893
-898
-877
-851
-777
-687
-680
-679
-625
-593
-622
-584
-542
-538
-495
-481
-447
-412
-429
-389
-365
-361
-373
-403
-357
-318
-314
-315
-331
-339
-361
-358
-318
-323
-346
-337
-314
-297
-319
-320
-297
-285
-270
-309
-358
-329
-297
-304
-299
-290
-307
-323
-292
-324
-373
-355
-330
-320
-320
-326
-302
-283
-290
-265
-339
-345
-287
-290
-259
-288
-309
-298
-312
-335
-333
-324
-315
-290
-300
-303
-293
-291
-272
-247
-260
-264
-272
-312
-320
-342
-309
-278
-284
-273
-281
-245
-238
-233
-211
-245
-295
-285
-233
-242
-224
-206
-257
-287
-275
-238
-208
-214
-260
-322
-287
-249
-266
-260
-291
-272
-216
-179
-195
-215
-203
-182
-158
-219
-234
-232
-232
-218
-228
-207
-204
-219
-216
-186
-162
-176
-180
-147
-139
-135
-155
-145
-90
-107
-130
-137
-123
-102
-103
-110
-107
-103
-124
-105
-78
-82
-62
-41
-64
-94
-51
4
34
17
5
27
-40
-60
-39
-53
-39
23
54
-19
-68
-33
8
28
53
54
69
83
80
86
83
73
64
66
44
40
55
44
94
125
96
83
86
103
121
137
109
96
108
108
105
85
46
49
80
55
78
119
136
130
119
117
154
166
63
48
88
106
107
44
52
73
38
26
40
